##TITLE=  compound name
##JCAMP-DX= 5.01
##DATA TYPE= ftir
##ORIGIN=
##OWNER=
##NAMES= other names
##XUNITS= 1/CM
##YUNITS= ABSORBANCE
##FIRSTX= 399.361384615384
##LASTX= 3999.40169230769
##MAXY= 1
##MINY= 0
##XFACTOR= 1.0
##YFACTOR= 1.0
##NPOINTS= 1867
##FIRSTY= 0.0697489890897993
##DELTAX= 1.92928205128237
##XYDATA=(X++(Y..Y))
399.361384615384 0.069749 0.070176 0.061494 0.056886 0.050813 0.05568 0.064973 0.068925 0.078431
416.724923076923 0.089509 0.136263 0.156023 0.121645 0.089921 0.071687 0.058732 0.053742 0.052064
434.088461538461 0.054505 0.056291 0.058427 0.057877 0.056931 0.057191 0.054917 0.05565 0.057939
451.452 0.055909 0.057679 0.06305 0.066331 0.069017 0.070848 0.07042 0.069093 0.071855
468.815538461538 0.07335 0.075517 0.079927 0.082719 0.086854 0.090318 0.093141 0.097017 0.101183
486.179076923077 0.103365 0.105715 0.10782 0.111406 0.119829 0.128435 0.13846 0.150362 0.169802
503.542615384615 0.200473 0.240009 0.308461 0.406287 0.540505 0.675395 0.688731 0.522957 0.325978
520.906153846154 0.212863 0.165774 0.159731 0.182773 0.237446 0.33225 0.379385 0.288533 0.182132
538.269692307692 0.138918 0.124697 0.12076 0.123354 0.131029 0.147265 0.175174 0.185382 0.169924
555.633230769231 0.161868 0.164233 0.169284 0.174868 0.18088 0.188388 0.192737 0.188281 0.184726
572.996769230769 0.191226 0.201114 0.211261 0.222782 0.234348 0.245548 0.259373 0.273472 0.288319
590.360307692307 0.306844 0.330053 0.358068 0.394797 0.445197 0.514321 0.617243 0.76376 0.909178
607.723846153846 0.840085 0.590921 0.426932 0.369024 0.366049 0.404654 0.450217 0.48278 0.526375
625.087384615385 0.534447 0.471199 0.432959 0.463294 0.533898 0.626795 0.757427 0.914336 0.894896
642.450923076923 0.701305 0.556435 0.480018 0.432502 0.401572 0.386923 0.386664 0.399664 0.420569
659.814461538461 0.446113 0.471489 0.495995 0.514931 0.524163 0.511742 0.495201 0.459648 0.404517
677.178 0.342031 0.285466 0.243824 0.222049 0.220783 0.247868 0.306798 0.343679 0.310399
694.541538461538 0.256046 0.219379 0.193179 0.175555 0.163973 0.158679 0.163149 0.182956 0.229877
711.905076923077 0.316503 0.35346 0.261967 0.162905 0.114107 0.092454 0.085008 0.081483 0.079332
729.268615384615 0.078325 0.079362 0.080095 0.081315 0.08217 0.084245 0.087388 0.089448 0.091508
746.632153846153 0.094331 0.097597 0.102953 0.111437 0.1243 0.143084 0.176028 0.229007 0.309148
763.995692307692 0.423239 0.53875 0.529412 0.375601 0.234165 0.1617 0.125124 0.110521 0.106264
781.359230769231 0.109438 0.124102 0.209201 0.350912 0.290166 0.161944 0.133394 0.128008 0.137896
798.722769230769 0.156191 0.183978 0.225971 0.299809 0.412741 0.544778 0.598581 0.498329 0.345785
816.086307692307 0.241306 0.180819 0.141512 0.117296 0.104784 0.102358 0.108858 0.128084 0.166629
833.449846153846 0.257084 0.346242 0.271687 0.156466 0.120745 0.11693 0.126741 0.14345 0.170153
850.813384615385 0.212619 0.288411 0.307805 0.197498 0.116381 0.111391 0.126162 0.149386 0.178866
868.176923076923 0.214359 0.251972 0.288075 0.314748 0.324788 0.313573 0.287343 0.254292 0.221088
885.540461538461 0.191653 0.168704 0.152407 0.143236 0.141787 0.149477 0.167788 0.203098 0.26099
902.904 0.307042 0.283925 0.218051 0.165698 0.130114 0.108598 0.100832 0.100282 0.103716
920.267538461538 0.109926 0.116625 0.119402 0.11632 0.109468 0.101915 0.09514 0.089082 0.084337
937.631076923077 0.080598 0.07747 0.075074 0.073152 0.071855 0.070726 0.069795 0.070039 0.071946
954.994615384615 0.074067 0.078065 0.085115 0.094148 0.109117 0.13611 0.186053 0.250599 0.24593
972.358153846154 0.168399 0.113481 0.095384 0.09337 0.100069 0.112337 0.124865 0.125399 0.1122
989.721692307692 0.098924 0.092699 0.090379 0.090242 0.091707 0.094682 0.099641 0.106111 0.114153
1007.08523076923 0.124788 0.13753 0.153048 0.173922 0.200839 0.235645 0.282918 0.343435 0.418677
1024.44876923077 0.512993 0.605203 0.693462 0.81091 0.883787 0.807919 0.627848 0.444968 0.331258
1041.81230769231 0.294026 0.308888 0.366857 0.467231 0.606561 0.767163 0.883833 0.882414 0.775799
1059.17584615385 0.610849 0.4365 0.310536 0.247639 0.227131 0.233661 0.263218 0.307561 0.319219
1076.53938461538 0.280278 0.2477 0.245747 0.241444 0.224811 0.222278 0.244495 0.289052 0.350561
1093.90292307692 0.40618 0.406607 0.342367 0.265949 0.209262 0.17322 0.152697 0.145815 0.152651
1111.26646153846 0.170779 0.197284 0.238117 0.312566 0.42327 0.474464 0.426871 0.399695 0.428687
1128.63 0.455268 0.434409 0.39762 0.391379 0.410803 0.428199 0.427909 0.4009 0.337667
1145.99353846154 0.268894 0.23032 0.225467 0.237827 0.23415 0.198627 0.151385 0.114199 0.092714
1163.35707692308 0.083192 0.082048 0.085512 0.089143 0.092668 0.09839 0.106584 0.116945 0.130877
1180.72061538462 0.149325 0.172503 0.201007 0.237568 0.287053 0.352575 0.432074 0.518288 0.593774
1198.08415384615 0.592615 0.478523 0.350393 0.278645 0.238682 0.203174 0.168856 0.140475 0.119585
1215.44769230769 0.104372 0.092668 0.083101 0.075364 0.070359 0.06807 0.067277 0.06775 0.070527
1232.81123076923 0.075776 0.08069 0.082292 0.081743 0.084932 0.095048 0.111391 0.132235 0.153246
1250.17476923077 0.173053 0.192966 0.205219 0.195514 0.167788 0.141314 0.124758 0.117784 0.117906
1267.53830769231 0.122438 0.125246 0.123049 0.120974 0.12282 0.128679 0.138186 0.147951 0.154513
1284.90184615385 0.160983 0.171893 0.188571 0.209873 0.236194 0.267231 0.306691 0.366262 0.443442
1302.26538461538 0.500954 0.489235 0.406027 0.302403 0.219471 0.164752 0.128649 0.107561 0.098116
1319.62892307692 0.097887 0.104433 0.114092 0.126528 0.142428 0.16408 0.200809 0.248844 0.259449
1336.99246153846 0.223697 0.191821 0.180789 0.177646 0.186267 0.223621 0.256641 0.234485 0.185519
1354.356 0.159045 0.159243 0.173144 0.186191 0.192126 0.19826 0.217456 0.260761 0.328222
1371.71953846154 0.36701 0.362432 0.317647 0.265476 0.230991 0.204288 0.170077 0.146746 0.139376
1389.08307692308 0.141161 0.142702 0.142184 0.142046 0.145907 0.155215 0.1776 0.204974 0.230854
1406.44661538462 0.241886 0.24332 0.247379 0.241199 0.210925 0.177127 0.160754 0.17026 0.187671
1423.81015384615 0.206912 0.228595 0.235218 0.225299 0.201846 0.171756 0.143908 0.112474 0.090745
1441.17369230769 0.078508 0.068849 0.062959 0.060334 0.062287 0.067887 0.082902 0.101534 0.107195
1458.53723076923 0.078614 0.057939 0.048249 0.04332 0.04065 0.040482 0.040543 0.041733 0.043931
1475.90076923077 0.046036 0.049714 0.053162 0.057206 0.063157 0.068116 0.076005 0.089113 0.113893
1493.26430769231 0.130648 0.136004 0.13814 0.156481 0.188159 0.187182 0.157763 0.112947 0.07602
1510.62784615385 0.064897 0.055955 0.051392 0.049454 0.048341 0.047654 0.048035 0.049348 0.052949
1527.99138461538 0.057939 0.064378 0.072679 0.086336 0.102708 0.113924 0.14197 0.204547 0.24445
1545.35492307692 0.237186 0.179217 0.133852 0.095109 0.076921 0.058305 0.048035 0.039612 0.036698
1562.71846153846 0.039734 0.043183 0.048508 0.056565 0.078416 0.111009 0.146792 0.194385 0.237156
1580.082 0.236652 0.205936 0.158602 0.116976 0.091447 0.077119 0.068833 0.062211 0.055879
1597.44553846154 0.049531 0.044266 0.040467 0.038529 0.037797 0.037873 0.038666 0.040269 0.041596
1614.80907692308 0.043229 0.045441 0.047745 0.049073 0.050675 0.05301 0.055314 0.058137 0.062028
1632.17261538462 0.065721 0.070008 0.077119 0.084871 0.089616 0.096818 0.103212 0.109575 0.120302
1649.53615384615 0.133364 0.140078 0.148531 0.152712 0.157046 0.167758 0.183825 0.20705 0.240009
1666.89969230769 0.267979 0.310323 0.377722 0.437217 0.473381 0.494789 0.482963 0.472786 0.477684
1684.26323076923 0.513375 0.607553 0.657496 0.746868 0.848859 0.927825 0.982055 1 0.955138
1701.62676923077 0.835874 0.757061 0.666117 0.573922 0.512657 0.445655 0.38674 0.317098 0.250294
1718.99030769231 0.177462 0.136049 0.110185 0.085267 0.070512 0.059648 0.051835 0.04686 0.042924
1736.35384615385 0.039338 0.042374 0.047303 0.05333 0.056977 0.057145 0.052506 0.045212 0.036164
1753.71738461538 0.02974 0.026459 0.022751 0.021225 0.020905 0.018997 0.016892 0.01561 0.013046
1771.08092307692 0.010742 0.008331 0.005936 0.005005 0.003906 0.003128 0.002564 0.002594 0.002625
1788.44446153846 0.003143 0.003845 0.004669 0.005219 0.005386 0.005097 0.005158 0.005173 0.004593
1805.808 0.003876 0.003525 0.003037 0.002502 0.00209 0.001831 0.001495 0.001129 0.000778
1823.17153846154 0.000473 0.000214 4.6e-05 0 0.000107 0.000351 0.000687 0.001083 0.00148
1840.53507692308 0.001831 0.002075 0.002197 0.002182 0.00206 0.001846 0.001587 0.001389 0.001144
1857.89861538461 0.001038 0.001114 0.001251 0.001389 0.001587 0.00174 0.001755 0.001694 0.001526
1875.26215384615 0.001328 0.001221 0.001205 0.00116 0.001053 0.001114 0.001251 0.001389 0.001709
1892.62569230769 0.002045 0.002319 0.002579 0.002747 0.002869 0.002914 0.002899 0.002869 0.00293
1909.98923076923 0.00293 0.002747 0.002686 0.002869 0.003143 0.003479 0.003983 0.004486 0.004959
1927.35276923077 0.005356 0.005768 0.006363 0.006943 0.007477 0.007691 0.007706 0.007996 0.008377
1944.71630769231 0.008606 0.009155 0.01001 0.011002 0.012268 0.013748 0.015534 0.01706 0.017777
1962.07984615385 0.017975 0.01767 0.016709 0.015106 0.013184 0.011261 0.009674 0.008362 0.007248
1979.44338461538 0.006989 0.007523 0.008087 0.008621 0.009125 0.009781 0.010315 0.010117 0.009293
1996.80692307692 0.008682 0.008545 0.008408 0.008301 0.008347 0.008988 0.0094 0.009064 0.009186
2014.17046153846 0.009583 0.01004 0.01033 0.010147 0.009873 0.009888 0.0103 0.010651 0.010971
2031.534 0.011154 0.011185 0.011215 0.011337 0.011612 0.011673 0.011582 0.011414 0.011383
2048.89753846154 0.011414 0.01146 0.011627 0.011933 0.012299 0.012619 0.013169 0.013993 0.014343
2066.26107692308 0.013962 0.013428 0.012924 0.01236 0.011795 0.011078 0.010254 0.009506 0.009018
2083.62461538462 0.00885 0.008957 0.009155 0.009293 0.009476 0.009827 0.010529 0.011521 0.012512
2100.98815384615 0.013367 0.014115 0.014679 0.015015 0.015076 0.014893 0.014359 0.013474 0.012558
2118.35169230769 0.01178 0.011017 0.010285 0.009781 0.009461 0.009339 0.009354 0.009476 0.009751
2135.71523076923 0.009934 0.01001 0.010254 0.010513 0.010681 0.011078 0.011261 0.011139 0.011505
2153.07876923077 0.0121 0.012543 0.012634 0.012558 0.012711 0.012924 0.013001 0.012757 0.012238
2170.44230769231 0.011826 0.011566 0.011246 0.011246 0.01178 0.012268 0.01268 0.013046 0.013336
2187.80584615385 0.013733 0.014099 0.01413 0.013748 0.013245 0.012726 0.011917 0.01117 0.010636
2205.16938461538 0.010086 0.009796 0.009873 0.009903 0.009842 0.009796 0.009903 0.010224 0.01059
2222.53292307692 0.010834 0.011063 0.0112 0.011566 0.012146 0.012696 0.013367 0.01387 0.014176
2239.89646153846 0.01445 0.014725 0.014832 0.014923 0.01503 0.01503 0.015167 0.015488 0.015869
2257.26 0.016159 0.016373 0.01648 0.016358 0.016205 0.016022 0.015671 0.015274 0.015
2274.62353846154 0.014847 0.014649 0.014496 0.014343 0.01413 0.01384 0.013626 0.013489 0.013169
2291.98707692308 0.012833 0.012573 0.012406 0.012497 0.012634 0.012711 0.012757 0.012787 0.01265
2309.35061538462 0.012528 0.012406 0.012314 0.012192 0.011856 0.011505 0.011414 0.011414 0.011246
2326.71415384615 0.011109 0.011078 0.010925 0.010559 0.009979 0.009522 0.009354 0.009262 0.009155
2344.07769230769 0.009262 0.009628 0.010101 0.010132 0.01004 0.010605 0.01146 0.012146 0.012543
2361.44123076923 0.012696 0.012833 0.013123 0.013428 0.013687 0.014099 0.014374 0.014389 0.014313
2378.80476923077 0.014679 0.015518 0.016281 0.016938 0.017441 0.017792 0.018173 0.018585 0.018891
2396.16830769231 0.019104 0.019196 0.019196 0.019165 0.019104 0.018982 0.018753 0.018479 0.018235
2413.53184615385 0.018021 0.017762 0.01767 0.017655 0.0177 0.017914 0.018143 0.018448 0.018753
2430.89538461538 0.018997 0.019272 0.019532 0.019745 0.019944 0.020111 0.020356 0.020752 0.021195
2448.25892307692 0.021698 0.022202 0.022614 0.022965 0.023285 0.023499 0.023667 0.023835 0.023957
2465.62246153846 0.024079 0.02417 0.024292 0.02443 0.024582 0.02475 0.024872 0.02504 0.025177
2482.986 0.025376 0.025574 0.025696 0.025879 0.026123 0.026307 0.026352 0.026352 0.026429
2500.34953846154 0.026505 0.026566 0.026612 0.026612 0.026474 0.026444 0.026581 0.026688 0.026841
2517.71307692308 0.0271 0.027314 0.027573 0.02797 0.028367 0.028717 0.028962 0.029084 0.029099
2535.07661538462 0.029099 0.029145 0.029252 0.029343 0.02945 0.029679 0.029999 0.030457 0.030945
2552.44015384615 0.031373 0.031724 0.032074 0.032532 0.033097 0.033738 0.034485 0.035309 0.036149
2569.80369230769 0.036927 0.03769 0.038437 0.038956 0.039292 0.039445 0.039445 0.03949 0.039521
2587.16723076923 0.039597 0.039811 0.040208 0.040742 0.041367 0.04213 0.04303 0.043824 0.044633
2604.53076923077 0.045365 0.045396 0.045319 0.0448 0.043458 0.042573 0.042802 0.0421 0.041245
2621.89430769231 0.041215 0.04155 0.041932 0.042542 0.043183 0.043565 0.044083 0.044526 0.045319
2639.25784615385 0.046082 0.047074 0.047761 0.048402 0.049393 0.050217 0.051011 0.051453 0.051392
2656.62138461538 0.051148 0.051606 0.052445 0.052735 0.05272 0.052949 0.052705 0.052094 0.052155
2673.98492307692 0.052888 0.052995 0.052644 0.052308 0.052522 0.053132 0.053605 0.054154 0.054215
2691.34846153846 0.054337 0.05478 0.055238 0.05565 0.055573 0.055955 0.056352 0.056245 0.05655
2708.712 0.057069 0.057816 0.05832 0.058488 0.058595 0.059022 0.05977 0.060044 0.060212
2726.07553846154 0.060563 0.061143 0.06157 0.061494 0.062135 0.063264 0.064057 0.064576 0.065217
2743.43907692308 0.065751 0.0663 0.066651 0.066773 0.067033 0.067521 0.068147 0.068986 0.070085
2760.80261538461 0.071138 0.072145 0.07303 0.074022 0.075441 0.076982 0.078462 0.080385 0.082246
2778.16615384615 0.084077 0.085512 0.086336 0.087617 0.088869 0.089586 0.090059 0.090654 0.091127
2795.52969230769 0.09163 0.092424 0.092866 0.094224 0.095949 0.097307 0.099168 0.100877 0.103029
2812.89323076923 0.105562 0.107576 0.109239 0.109804 0.109895 0.110475 0.110857 0.110933 0.111177
2830.25676923077 0.111589 0.112123 0.113176 0.114321 0.115404 0.116686 0.118425 0.120089 0.121447
2847.62030769231 0.12253 0.123812 0.125322 0.126604 0.127398 0.127459 0.126345 0.124804 0.124163
2864.98384615385 0.123461 0.1234 0.124285 0.125093 0.125566 0.125811 0.12639 0.127031 0.127703
2882.34738461538 0.128527 0.128725 0.128328 0.127871 0.126848 0.12488 0.122393 0.119722 0.116915
2899.71092307692 0.114305 0.111498 0.10956 0.108873 0.108965 0.109941 0.11165 0.114839 0.119493
2917.07446153846 0.125963 0.134371 0.141695 0.144289 0.144396 0.147921 0.159457 0.181262 0.200595
2934.438 0.199878 0.189181 0.181643 0.168643 0.151522 0.140871 0.137972 0.138643 0.138109
2951.80153846154 0.132906 0.123812 0.115663 0.110872 0.108629 0.108064 0.109255 0.111803 0.116213
2969.16507692308 0.122896 0.131151 0.139834 0.144274 0.138598 0.127321 0.119127 0.114961 0.112261
2986.52861538462 0.110231 0.108431 0.106462 0.104875 0.104295 0.10486 0.10663 0.109621 0.113268
3003.89215384615 0.117098 0.120836 0.124208 0.126925 0.129046 0.130861 0.132372 0.133181 0.133486
3021.25569230769 0.133684 0.133577 0.133165 0.133303 0.134447 0.136294 0.139284 0.142428 0.145769
3038.61923076923 0.149493 0.152239 0.153841 0.155413 0.156893 0.157519 0.159304 0.161898 0.164355
3055.98276923077 0.167086 0.169146 0.170291 0.170977 0.170871 0.169192 0.167025 0.163821 0.15964
3073.34630769231 0.155489 0.152117 0.150256 0.148623 0.14728 0.146975 0.14789 0.149798 0.152285
3090.70984615385 0.15581 0.161181 0.167056 0.170336 0.16788 0.159823 0.150347 0.142733 0.137301
3108.07338461538 0.133318 0.131044 0.12932 0.127291 0.125841 0.124849 0.123552 0.12195 0.121004
3125.43692307692 0.120546 0.120348 0.120485 0.121157 0.122133 0.122957 0.123949 0.125063 0.125643
3142.80046153846 0.126467 0.127718 0.129656 0.131441 0.132631 0.134844 0.139559 0.147417 0.163241
3160.164 0.17351 0.157259 0.139178 0.134844 0.133074 0.132128 0.131624 0.130983 0.130266
3177.52753846154 0.13051 0.131609 0.131701 0.131594 0.133181 0.13463 0.135317 0.136202 0.137362
3194.89107692308 0.138781 0.140108 0.141268 0.142901 0.145022 0.146777 0.147967 0.149493 0.150652
3212.25461538462 0.151751 0.153994 0.156634 0.159014 0.161379 0.163485 0.165789 0.168536 0.171008
3229.61815384615 0.173434 0.175692 0.178592 0.182071 0.184756 0.186938 0.18941 0.19321 0.198032
3246.98169230769 0.202396 0.206119 0.210452 0.215091 0.219821 0.225483 0.232212 0.238437 0.244221
3264.34523076923 0.250874 0.257176 0.263172 0.269978 0.276921 0.283772 0.291615 0.298939 0.306462
3281.70876923077 0.31635 0.32726 0.33785 0.347936 0.3561 0.361639 0.364477 0.361898 0.354299
3299.07230769231 0.342687 0.325963 0.305165 0.283955 0.262821 0.242145 0.223957 0.208179 0.194171
3316.43584615385 0.18233 0.172763 0.164248 0.157824 0.153674 0.14902 0.144457 0.14139 0.138872
3333.79938461538 0.136202 0.13312 0.130083 0.127901 0.126314 0.125139 0.12398 0.12253 0.120165
3351.16292307692 0.118837 0.118257 0.117967 0.118044 0.117464 0.116732 0.116732 0.116365 0.114626
3368.52646153846 0.113207 0.112642 0.112673 0.111971 0.110521 0.109468 0.108507 0.10779 0.107301
3385.89 0.106752 0.107012 0.10663 0.104784 0.103792 0.104128 0.103517 0.101961 0.102388
3403.25353846154 0.104158 0.104799 0.105791 0.107866 0.111345 0.115404 0.120241 0.12755 0.136889
3420.61707692308 0.147601 0.160479 0.173907 0.186297 0.196872 0.203693 0.205005 0.200153 0.190784
3437.98061538461 0.178317 0.164752 0.150713 0.136126 0.122866 0.111116 0.101427 0.094102 0.0878
3455.34415384615 0.082078 0.077714 0.074876 0.071809 0.069139 0.067185 0.065537 0.064347 0.062776
3472.70769230769 0.060655 0.059327 0.058061 0.056641 0.055192 0.0533 0.050614 0.047929 0.04622
3490.07123076923 0.044816 0.042283 0.040345 0.039475 0.03827 0.036957 0.035477 0.033921 0.032914
3507.43476923077 0.031388 0.029877 0.029313 0.028916 0.028199 0.027131 0.02623 0.025635 0.024964
3524.79830769231 0.024811 0.023972 0.023255 0.023514 0.022904 0.022553 0.021897 0.020905 0.020813
3542.16184615385 0.02118 0.020844 0.019776 0.018875 0.018189 0.017716 0.016938 0.016449 0.015763
3559.52538461538 0.014527 0.014054 0.014252 0.014664 0.014252 0.012863 0.013016 0.01297 0.011841
3576.88892307692 0.011398 0.011124 0.010559 0.0103 0.010254 0.011078 0.011444 0.0112 0.010819
3594.25246153846 0.009918 0.009567 0.009552 0.009155 0.008209 0.008438 0.008804 0.008331 0.008698
3611.616 0.00827 0.007584 0.007828 0.007874 0.007706 0.007172 0.006592 0.006271 0.006012
3628.97953846154 0.005554 0.006912 0.006775 0.005737 0.005463 0.005478 0.005188 0.004822 0.004974
3646.34307692308 0.005447 0.005524 0.005035 0.005753 0.004593 0.003677 0.004715 0.005524 0.005463
3663.70661538461 0.005295 0.005127 0.0047 0.004868 0.004685 0.003708 0.003769 0.004273 0.00415
3681.07015384615 0.003998 0.003922 0.00383 0.003769 0.004257 0.00412 0.004227 0.004898 0.004669
3698.43369230769 0.005219 0.0056 0.005676 0.005325 0.004791 0.004715 0.00383 0.003861 0.005097
3715.79723076923 0.005097 0.005142 0.004425 0.004059 0.004639 0.004913 0.004501 0.004242 0.004746
3733.16076923077 0.004379 0.004044 0.005509 0.006287 0.005982 0.004746 0.004318 0.005783 0.00589
3750.52430769231 0.004715 0.003265 0.005539 0.006317 0.005341 0.004898 0.005417 0.005371 0.005386
3767.88784615385 0.00589 0.005615 0.005554 0.006027 0.006043 0.005921 0.006149 0.005829 0.005631
3785.25138461538 0.005844 0.00589 0.005798 0.005722 0.00618 0.005921 0.005966 0.006088 0.005417
3802.61492307692 0.005737 0.005951 0.006516 0.006973 0.007599 0.007828 0.006821 0.006653 0.006836
3819.97846153846 0.006516 0.006882 0.006531 0.005936 0.006332 0.006775 0.006973 0.006531 0.006531
3837.342 0.006744 0.006439 0.006882 0.00676 0.006989 0.00708 0.006806 0.007065 0.007355
3854.70553846154 0.008743 0.00827 0.007904 0.007797 0.007202 0.006806 0.00621 0.007141 0.008499
3872.06907692308 0.008347 0.007187 0.007523 0.00737 0.006851 0.007446 0.007477 0.007614 0.008164
3889.43261538462 0.008103 0.008164 0.008209 0.007568 0.00734 0.008026 0.009598 0.009583 0.008835
3906.79615384615 0.008621 0.008316 0.008347 0.008133 0.007721 0.007599 0.008347 0.008606 0.008606
3924.15969230769 0.008759 0.008469 0.008515 0.008118 0.008072 0.008759 0.008743 0.00885 0.009018
3941.52323076923 0.008545 0.00853 0.009277 0.009277 0.009186 0.009552 0.00972 0.009689 0.009812
3958.88676923077 0.009903 0.009796 0.009751 0.009644 0.009384 0.009018 0.009689 0.01001 0.009812
3976.25030769231 0.010163 0.01059 0.010208 0.009735 0.009766 0.01004 0.011124 0.011093 0.010086
3993.61384615385 0.010224 0.01088 1.1093e-02 0.10971e-1
##END=
